Time,Acceleration X,Acceleration Y,Acceleration Z,Angular Velocity X,Angular Velocity Y,Angular Velocity Z,Yaw,Pitch,Roll
0,-9.673,-1.228,0.80293,-0.035841,0.060155,0.83183,-96.643,-6.975,-85.243
0.099,-9.6627,-0.4335,0.87044,-0.024188,0.075274,0.98451,-96.82,-2.0236,-84.987
0.198,-9.7619,0.40206,0.89454,-0.0083786,0.071241,1.136,-97.117,3.6544,-84.67
0.297,-9.3765,1.5506,0.95621,-0.0031649,0.078026,1.2758,-170.19,10.043,-84.275
0.396,-9.2243,2.7038,1.042,0.0030898,0.073534,1.3804,-170.85,17.068,-83.792
0.495,-8.7411,3.9296,1.0574,0.0029814,0.069468,1.4518,-171.69,24.573,-83.198
0.593,-8.241,5.3003,1.1294,-0.0066973,0.069793,1.5146,-172.72,32.431,-82.44
0.692,-7.1701,6.1967,1.2454,-0.048397,0.086254,1.6583,-173.95,40.647,-81.455
0.791,-6.1296,7.2389,1.1496,-0.084604,0.12525,1.7852,-175.41,49.556,-80.01
0.89,-4.9914,7.9651,1.1739,-0.10686,0.16995,1.8769,-177.69,59.088,-77.521
0.989,-3.1914,9.234,0.97986,-0.049554,0.12243,1.9198,177.6,69.031,-72.43
1.088,-1.3354,9.7455,0.8426,-0.028285,0.11858,1.9679,163.14,78.594,-57.761
1.186,0.17603,9.6874,1.0004,-0.048753,0.098788,2.0253,96.616,84.082,8.7526
1.285,2.3069,9.6166,1.0052,-0.055344,0.074945,2.0624,40.292,77.013,64.957
1.384,4.1262,8.8283,0.82943,-0.069204,0.095173,2.152,27.645,66.566,77.469
1.483,5.8418,8.0085,0.5522,-0.064966,0.10787,2.2438,22.65,55.283,82.287
1.582,7.1913,6.5411,0.82763,-0.06609,0.12234,2.3654,19.863,43.337,84.821
1.681,8.9325,4.8502,0.45401,-0.05524,0.16809,2.45,18.08,30.798,86.44
1.779,9.817,2.6239,0.15613,-0.025632,0.14022,2.5461,16.908,17.704,87.602
1.878,9.7349,0.54442,0.096998,-0.042598,0.19044,2.7072,16.187,4.3611,88.456
1.977,9.8615,-2.3323,0.020657,-0.028985,0.17079,2.831,15.652,-9.8431,89.257
2.076,8.7451,-4.3064,0.087867,-0.020541,0.17084,2.9121,15.257,-24.661,90.014
2.175,7.3434,-6.5315,0.060624,-0.10689,0.20328,2.9787,14.987,-40.069,90.821
2.274,4.6975,-8.7307,-0.40087,-0.084449,0.1934,2.9106,15.005,-55.971,91.748
2.372,1.7042,-8.7373,-0.13622,-0.082692,0.16266,3.0747,14.995,-71.94,92.886
2.471,-0.88092,-9.969,-0.11421,-0.1135,0.18825,3.0778,27.407,-87.977,106.22
2.57,-3.5729,-9.0116,-0.10598,-0.14126,0.19428,3.1138,-169.2,-75.51,-89.618
2.669,-6.2504,-7.2834,0.23381,-0.16165,0.18424,3.1573,-168.31,-58.91,-87.817
2.768,-7.7819,-5.2523,0.45266,-0.14457,0.18816,3.1799,-168.17,-42.055,-86.786
2.867,-8.9511,-2.3043,0.61732,-0.15949,0.19749,3.2043,-168.29,-24.851,-85.925
2.965,-9.208,0.97807,1.0513,-0.14876,0.21097,3.2301,-168.78,-7.4516,-85.037
3.064,-8.6565,4.1254,1.0119,-0.094337,0.2127,3.2487,-169.5,10.224,-84.047
3.163,-6.7903,6.6858,0.96654,-0.102,0.18482,3.2687,-170.79,29.232,-82.488
3.262,-4.3808,8.4531,1.002,-0.13936,0.18795,3.2834,-173.35,47.193,-79.801
3.361,-1.5798,9.5374,1.1559,-0.12879,0.18886,3.3794,-179.58,64.722,-73.566
3.46,0.97941,9.619,1.1026,-0.083907,0.20427,3.4129,149.3,81.219,-42.391
3.558,4.8721,8.7357,0.75204,-0.075451,0.1884,3.4033,40.854,76.082,66.055
3.657,7.5334,6.99,0.55564,-0.080656,0.21775,3.4408,25.821,58.391,81.011
3.756,9.3118,4.0259,0.55954,-0.030197,0.28653,3.5461,21.692,40.015,85.157
3.855,9.2693,1.089,0.5281,-0.01106,0.28473,3.6017,19.537,21.521,87.098
3.954,10.018,-2.2289,0.00074844,-0.10293,0.2603,3.5347,18.442,2.4828,88.407
4.053,8.4827,-5.9943,-0.46344,-0.11775,0.26949,3.4834,17.98,-16.959,89.695
4.151,5.5579,-7.7488,-0.13143,-0.11861,0.29559,3.4377,17.724,-36.235,90.814
4.25,2.7877,-9.3374,-0.21046,-0.1006,0.29822,3.5658,17.447,-55.436,91.831
4.349,-0.37003,-9.8597,0.30881,-0.12326,0.26785,3.6188,17.541,-74.078,93.257
4.448,-3.2123,-8.3595,0.038769,-0.1541,0.29111,3.6389,-174.29,-87.34,-97.118
4.547,-6.4941,-6.8806,0.3118,-0.17056,0.23366,3.7291,-166.85,-68.052,-88.382
4.645,-8.22,-4.5492,0.78422,-0.22735,0.2007,3.7413,-166.92,-48.427,-87.012
4.744,-9.8399,-0.77449,0.74096,-0.24408,0.25623,3.7297,-167.41,-28.802,-85.962
4.843,-9.1038,2.885,0.85921,-0.20204,0.30919,3.6514,-167.99,-8.725,-85.048
4.942,-7.4966,6.4984,0.9134,-0.13936,0.25103,3.6058,-168.59,11.516,-83.968
5.041,-4.5883,8.7586,0.95831,-0.12022,0.2322,3.5749,-169.67,31.764,-82.288
5.14,-1.1713,9.5114,0.88152,-0.094758,0.21558,3.6219,-172.29,51.813,-79.038
5.238,1.9338,9.5697,1.0703,-0.050775,0.26065,3.6663,178.45,71.066,-69.297
5.337,5.5377,8.5974,0.61777,-0.053139,0.20534,3.5785,87.937,83.62,21.508
5.436,8.2408,5.7554,0.50849,-0.054013,0.22527,3.5157,32.573,66.88,76.964
5.535,9.5912,2.9499,0.37093,-0.065478,0.27308,3.5244,25.687,47.292,84.056
5.634,10.432,-0.53544,0.031734,-0.070823,0.24298,3.377,23.262,27.917,86.654
5.733,9.6961,-4.0105,-0.19055,-0.072969,0.23285,3.3353,21.905,8.7884,88.173
5.831,7.559,-6.5125,-0.11272,-0.091972,0.254,3.2638,21.048,-10.117,89.337
5.93,4.762,-8.4523,-0.27064,-0.10546,0.3059,3.2,20.609,-28.847,90.417
6.029,1.922,-10.047,-0.26675,-0.075858,0.27498,3.2844,20.374,-47.097,91.595
6.128,-0.72195,-9.9172,-0.089664,-0.063774,0.31936,3.2196,20.735,-65.09,93.262
6.227,-3.7704,-8.4493,-0.062121,-0.0028903,0.30756,3.1252,25.324,-82.546,99.23
6.325,-6.9122,-6.9396,0.24459,-0.046115,0.23243,3.1895,-168.76,-79.778,-93.427
6.424,-8.1714,-4.6869,0.79904,-0.029148,0.21426,3.1916,-165.91,-61.992,-89.256
6.523,-9.3063,-1.5925,0.93002,-0.041045,0.18774,3.1882,-166.03,-44.408,-87.688
6.622,-9.6991,1.4643,1.0511,-0.016719,0.1374,3.122,-166.8,-27.47,-86.637
6.721,-8.504,4.345,1.1514,-0.0339,0.11341,3.0865,-167.64,-10.281,-85.743
6.82,-6.8129,7.2267,1.1963,-0.061742,0.092603,3.0553,-168.8,6.9911,-84.725
6.918,-4.2715,8.3938,1.1764,-0.067356,0.02682,2.9546,-170.42,24.474,-83.329
7.017,-1.4075,9.6885,1.2017,-0.12094,-0.01219,2.939,-172.87,41.305,-81.29
7.116,1.1382,9.7536,1.2809,-0.12338,0.11151,2.9173,-177.3,58.067,-77.306
7.215,3.679,8.9884,1.274,-0.087085,0.10339,2.876,170.38,74.155,-65.545
7.314,6.4939,7.7013,0.60953,-0.060935,0.17962,2.8137,90.416,83.759,13.502
7.413,8.7303,5.3431,0.63453,0.046152,0.22373,2.7465,30.622,71.975,72.309
7.511,9.4195,3.3782,0.58214,0.11208,0.17396,2.7095,20.752,56.773,81.553
7.61,10.232,0.64276,0.23786,0.084329,0.15207,2.5929,17.009,41.436,84.87
7.709,9.7172,-2.1816,-0.45805,0.09793,0.083241,2.4753,14.993,26.402,86.592
7.808,8.7011,-4.278,-0.10882,0.071162,0.050469,2.3779,14.16,11.476,87.902
7.907,7.9166,-6.7438,-0.17678,-0.0052131,0.081434,2.1279,14.182,-3.347,89.003
8.006,5.4594,-8.2975,-0.51598,-0.046314,0.11978,1.874,14.447,-17.598,89.801
8.104,3.2406,-9.6096,-0.46149,-0.034272,0.1317,1.68,14.946,-31.313,90.545
8.203,1.4379,-9.3662,-0.14625,-0.028766,0.13635,1.5596,15.673,-44.546,91.326
8.302,0.15089,-9.9104,-0.00014969,-0.027273,0.16955,1.3678,16.444,-56.883,92.145
8.401,-1.794,-9.6865,-0.21091,-0.00018003,0.2045,1.1998,17.004,-67.879,92.975
8.5,-3.0992,-9.2798,-0.11915,0.022269,0.18273,1.0601,18.019,-77.684,94.49
8.598,-4.2363,-8.6056,0.17753,0.046917,0.18061,0.96648,26.552,-86.624,103.59
8.697,-4.8523,-8.1139,0.24399,0.038347,0.1553,0.86282,-174.02,-84.979,-96.416
8.796,-5.9208,-7.8667,0.1925,0.044722,0.13697,0.79453,-169.45,-77.726,-91.08
8.895,-6.3929,-7.1945,0.28336,0.041502,0.12279,0.73684,-168.99,-71.313,-89.704
8.994,-6.864,-6.6121,0.28201,0.039309,0.1022,0.68125,-169.2,-65.092,-88.949
9.093,-7.359,-6.1453,0.45116,0.02322,0.080453,0.63621,-169.73,-59.589,-88.58
9.191,-7.8941,-5.6829,0.43544,0.013602,0.068356,0.58381,-170.22,-54.444,-88.232
9.29,-8.1664,-5.1589,0.479,0.0082848,0.062564,0.53681,-170.7,-50.001,-87.939
9.389,-8.4552,-4.6288,0.51523,0.00077818,0.048228,0.49295,-171.12,-45.467,-87.639
9.488,-8.6863,-4.1236,0.55849,-0.010934,0.045544,0.45445,-171.48,-41.188,-87.403
9.587,-8.9129,-3.7527,0.63558,-0.015205,0.038541,0.41918,-171.73,-37.156,-87.171
9.685,-9.1243,-3.299,0.59561,-0.016239,0.034863,0.37223,-171.9,-33.059,-86.937
9.784,-9.2618,-2.8724,0.64666,-0.01191,0.035437,0.32428,-172.02,-29.485,-86.707
9.883,-9.3289,-2.5073,0.6986,-0.0065367,0.030765,0.26992,-172.05,-25.107,-86.368
9.982,-9.4198,-2.1262,0.67764,-0.0011316,0.030415,0.21024,-172.09,-21.718,-86.199
10.081,-9.5174,-1.8006,0.70578,0.0063674,0.023648,0.15268,-172.09,-18.886,-86.055
10.179,-9.5489,-1.5851,0.74261,0.0096223,0.02115,0.095105,-172.07,-16.588,-85.927
